sep=;
Applied potential [V];WE current [A];WE current [A];WE current [A]
-0.50017;2.547988e-06;-3.63998e-07;-2.911987e-06
-0.499096;2.435989e-06;-2.79998e-07;-2.7159869999999998e-06
-0.498021;2.3659889999999998e-06;-2.3799799999999998e-07;-2.603988e-06
-0.49694699999999997;2.295989e-06;-2.09999e-07;-2.505988e-06
-0.495872;2.21199e-06;-1.8899899999999998e-07;-2.400989e-06
-0.49479799999999996;2.10699e-06;-1.81999e-07;-2.288989e-06
-0.493724;2.06149e-06;-1.57499e-07;-2.21899e-06
-0.492649;1.991491e-06;-1.39999e-07;-2.13149e-06
-0.491575;1.907491e-06;-1.46999e-07;-2.05449e-06
-0.4905;1.828741e-06;-1.29499e-07;-1.958241e-06
-0.48942599999999997;1.784991e-06;-1.22499e-07;-1.907491e-06
-0.488351;1.746492e-06;-1.04999e-07;-1.851491e-06
-0.48727699999999996;1.683492e-06;-9.012460000000001e-08;-1.7736169999999999e-06
-0.48620199999999997;1.630992e-06;-8.2249632e-08;-1.713242e-06
-0.485128;1.581992e-06;-7.262468000000001e-08;-1.654617e-06
-0.48405299999999996;1.532555e-06;-6.781220000000001e-08;-1.6003669999999999e-06
-0.482979;1.48793e-06;-6.168722800000001e-08;-1.549618e-06
-0.481904;1.442431e-06;-5.5999752000000005e-08;-1.49843e-06
-0.48083;1.401306e-06;-4.9874776e-08;-1.4511809999999999e-06
-0.479755;1.3604e-06;-4.4843548e-08;-1.405243e-06
-0.47868099999999997;1.322119e-06;-4.0031072000000006e-08;-1.36215e-06
-0.477606;1.284494e-06;-3.5656092e-08;-1.32015e-06
-0.47653199999999996;1.248838e-06;-3.149986e-08;-1.280338e-06
-0.47545699999999996;1.21515e-06;-2.690613e-08;-1.242057e-06
-0.474383;1.181682e-06;-2.2968648000000002e-08;-1.20465e-06
-0.47330799999999995;1.150182e-06;-1.9249914000000003e-08;-1.169432e-06
-0.472234;1.119338e-06;-1.553118e-08;-1.13487e-06
-0.471159;1.089807e-06;-1.2249946000000001e-08;-1.1020569999999999e-06
-0.470085;1.061588e-06;-9.187459e-09;-1.070776e-06
-0.46901;1.034026e-06;-5.906224e-09;-1.039932e-06
-0.46793599999999996;1.006901e-06;-3.281235e-09;-1.010182e-06
-0.466862;9.81745e-07;-2.18749e-10;-9.81964e-07
-0.465787;9.56151e-07;1.9687410000000003e-09;-9.54183e-07
-0.464713;9.318699999999999e-07;4.3749800000000005e-09;-9.27495e-07
-0.463638;9.0912e-07;6.999969000000001e-09;-9.0212e-07
-0.462564;8.87355e-07;9.953081000000001e-09;-8.77402e-07
-0.461489;8.65917e-07;1.2249946000000001e-08;-8.536679999999999e-07
-0.46041499999999996;8.44808e-07;1.4328061e-08;-8.3048e-07
-0.45933999999999997;8.24574e-07;1.6515552e-08;-8.080579999999999e-07
-0.458266;8.05215e-07;1.8265544e-08;-7.86949e-07
-0.45719099999999996;7.86512e-07;2.0671782e-08;-7.6584e-07
-0.456117;7.68465e-07;2.2749900000000003e-08;-7.45715e-07
-0.455042;7.50856e-07;2.4281142000000003e-08;-7.26574e-07
-0.453968;7.33574e-07;2.5921760000000002e-08;-7.07653e-07
-0.452893;7.169489999999999e-07;2.7671752e-08;-6.892779999999999e-07
-0.45181899999999997;7.014179999999999e-07;2.9421744e-08;-6.71997e-07
-0.450744;6.85559e-07;3.073424e-08;-6.54825e-07
-0.44966999999999996;6.70137e-07;3.2046732e-08;-6.3809e-07
-0.44859499999999997;6.557e-07;3.3468602000000006e-08;-6.22231e-07
-0.447521;6.4159e-07;3.4890468e-08;-6.066999999999999e-07
-0.44644599999999995;6.28028e-07;3.6093588e-08;-5.91934e-07
-0.445372;6.141369999999999e-07;3.7077960000000003e-08;-5.77059e-07
-0.444297;6.01559e-07;3.828108e-08;-5.63278e-07
-0.443223;5.893089999999999e-07;3.9593572000000006e-08;-5.49716e-07
-0.442148;5.7695e-07;4.0468572000000006e-08;-5.36482e-07
-0.44107399999999997;5.65138e-07;4.1452944e-08;-5.23685e-07
-0.439999;5.53216e-07;4.2327936000000006e-08;-5.10888e-07
-0.43892499999999995;5.42497e-07;4.3312308e-08;-4.99185e-07
-0.437851;5.31888e-07;4.4077928e-08;-4.8781e-07
-0.436776;5.21388e-07;4.5171676000000005e-08;-4.76216e-07
-0.435702;5.111069999999999e-07;4.6046672e-08;-4.6506e-07
-0.434627;5.017e-07;4.6484168e-08;-4.5521599999999996e-07
-0.43355299999999997;4.91747e-07;4.735916400000001e-08;-4.4438799999999997e-07
-0.432478;4.8245e-07;4.7906036000000004e-08;-4.34544e-07
-0.43140399999999995;4.7359099999999997e-07;4.8671660000000005e-08;-4.24919e-07
-0.43032899999999996;4.6495099999999997e-07;4.9546656e-08;-4.15404e-07
-0.429255;4.5631e-07;4.9765404000000006e-08;-4.0654499999999997e-07
-0.42818;4.48326e-07;5.0531024000000005e-08;-3.97795e-07
-0.427106;4.40451e-07;5.1077896e-08;-3.89373e-07
-0.426031;4.3224799999999997e-07;5.1187276e-08;-3.8106e-07
-0.424957;4.2557599999999997e-07;5.2281016e-08;-3.73295e-07
-0.423882;4.18466e-07;5.2827888000000006e-08;-3.65639e-07
-0.42280799999999996;4.1135699999999997e-07;5.3265388000000005e-08;-3.58092e-07
-0.42173299999999997;4.04685e-07;5.4031012000000006e-08;-3.50654e-07
-0.420659;3.97904e-07;5.4031012000000006e-08;-3.43873e-07
-0.41958399999999996;3.91342e-07;5.468726e-08;-3.36654e-07
-0.41851;3.85217e-07;5.5124752000000006e-08;-3.30092e-07
-0.417435;3.7930999999999997e-07;5.545288e-08;-3.23857e-07
-0.416361;3.73404e-07;5.5781004e-08;-3.17623e-07
-0.415286;3.67826e-07;5.6327876000000007e-08;-3.11498e-07
-0.41421199999999997;3.62357e-07;5.6437252000000005e-08;-3.0592e-07
-0.413137;3.56998e-07;5.6984124e-08;-3.00014e-07
-0.41206299999999996;3.5142e-07;5.7093496000000006e-08;-2.94326e-07
-0.410989;3.46607e-07;5.7530996000000006e-08;-2.89076e-07
-0.409914;3.41904e-07;5.7749744e-08;-2.84154e-07
-0.40884;3.3731099999999997e-07;5.8187244e-08;-2.79123e-07
-0.407765;3.32498e-07;5.8405992000000004e-08;-2.74092e-07
-0.40669099999999997;3.2757599999999997e-07;5.862474000000001e-08;-2.68951e-07
-0.405616;3.2341999999999997e-07;5.8734116000000006e-08;-2.64686e-07
-0.40454199999999996;3.19373e-07;5.8843488e-08;-2.6053e-07
-0.40346699999999996;3.1467e-07;5.8843488e-08;-2.55826e-07
-0.402393;3.10951e-07;5.9171612000000004e-08;-2.5178e-07
-0.401318;3.06686e-07;5.9171612000000004e-08;-2.47514e-07
-0.400244;3.03076e-07;5.960910800000001e-08;-2.43467e-07
-0.399169;2.99139e-07;5.9499736000000005e-08;-2.39639e-07
-0.398095;2.9552899999999997e-07;5.9499736000000005e-08;-2.3603e-07
-0.39702;2.92139e-07;5.9827856e-08;-2.32311e-07
-0.39594599999999996;2.88639e-07;5.9827856e-08;-2.28811e-07
-0.39487099999999997;2.85248e-07;5.960910800000001e-08;-2.25639e-07
-0.393797;2.81967e-07;5.9827856e-08;-2.22139e-07
-0.39272199999999996;2.79451e-07;6.0374732e-08;-2.19077e-07
-0.391648;2.76608e-07;6.026536e-08;-2.16342e-07
-0.390573;2.7332599999999997e-07;6.0374732e-08;-2.1295199999999999e-07
-0.389499;2.7092e-07;6.048410800000001e-08;-2.10436e-07
-0.388424;2.68514e-07;6.081222800000001e-08;-2.07702e-07
-0.38734999999999997;2.6566999999999997e-07;6.0702856e-08;-2.0496699999999999e-07
-0.386275;2.63045e-07;6.081222800000001e-08;-2.02233e-07
-0.38520099999999996;2.60967e-07;6.1030976e-08;-1.99936e-07
-0.38412599999999997;2.57905e-07;6.0921604e-08;-1.9698299999999998e-07
-0.383052;2.56045e-07;6.0921604e-08;-1.95124e-07
-0.38197699999999996;2.5385799999999997e-07;6.1249732e-08;-1.92608e-07
-0.380903;2.5167e-07;6.114035200000001e-08;-1.9053e-07
-0.37982899999999997;2.49373e-07;6.114035200000001e-08;-1.88233e-07
-0.378754;2.46967e-07;6.1030976e-08;-1.85936e-07
-0.37767999999999996;2.45327e-07;6.114035200000001e-08;-1.84186e-07
-0.37660499999999997;2.43358e-07;6.1249732e-08;-1.82108e-07
-0.375531;2.41389e-07;6.135910400000001e-08;-1.8003e-07
-0.37445599999999996;2.39202e-07;6.135910400000001e-08;-1.7784199999999999e-07
-0.373382;2.37889e-07;6.135910400000001e-08;-1.7653e-07
-0.372307;2.3591999999999998e-07;6.1577852e-08;-1.74342e-07
-0.371233;2.3416999999999999e-07;6.135910400000001e-08;-1.72811e-07
-0.370158;2.32311e-07;6.1249732e-08;-1.71061e-07
-0.36908399999999997;2.30889e-07;6.1577852e-08;-1.69311e-07
-0.368009;2.2892e-07;6.135910400000001e-08;-1.67561e-07
-0.36693499999999996;2.2717e-07;6.146848e-08;-1.6570199999999998e-07
-0.36585999999999996;2.25967e-07;6.146848e-08;-1.64499e-07
-0.364786;2.2443599999999999e-07;6.135910400000001e-08;-1.63077e-07
-0.363711;2.2268599999999999e-07;6.1249732e-08;-1.61436e-07
-0.362637;2.21264e-07;6.114035200000001e-08;-1.6012399999999999e-07
-0.361562;2.20061e-07;6.1249732e-08;-1.58811e-07
-0.360488;2.18749e-07;6.114035200000001e-08;-1.57608e-07
-0.359413;2.17436e-07;6.1249732e-08;-1.56186e-07
-0.35833899999999996;2.1612399999999998e-07;6.1030976e-08;-1.55093e-07
-0.35726399999999997;2.15467e-07;6.135910400000001e-08;-1.54108e-07
-0.35619;2.14045e-07;6.1249732e-08;-1.52796e-07
-0.35511499999999996;2.1295199999999999e-07;6.1030976e-08;-1.51921e-07
-0.354041;2.12077e-07;6.114035200000001e-08;-1.50936e-07
-0.352967;2.10655e-07;6.114035200000001e-08;-1.49514e-07
-0.351892;2.0967e-07;6.114035200000001e-08;-1.4853e-07
-0.35081799999999996;2.08686e-07;6.1030976e-08;-1.47655e-07
-0.34974299999999997;2.08139e-07;6.114035200000001e-08;-1.46999e-07
-0.348669;2.0704499999999999e-07;6.1249732e-08;-1.45796e-07
-0.34759399999999996;2.0617e-07;6.114035200000001e-08;-1.4503e-07
-0.34652;2.0496699999999999e-07;6.114035200000001e-08;-1.43827e-07
-0.345445;2.04311e-07;6.1249732e-08;-1.4306099999999999e-07
-0.344371;2.03327e-07;6.1249732e-08;-1.42077e-07
-0.343296;2.0256099999999998e-07;6.1030976e-08;-1.4153e-07
-0.34222199999999997;2.01795e-07;6.114035200000001e-08;-1.4065499999999998e-07
-0.341147;2.00592e-07;6.1030976e-08;-1.39561e-07
-0.34007299999999996;1.99936e-07;6.1030976e-08;-1.3890499999999999e-07
-0.33899799999999997;1.98952e-07;6.1030976e-08;-1.37921e-07
-0.337924;1.98405e-07;6.0921604e-08;-1.37483e-07
-0.336849;1.97749e-07;6.0921604e-08;-1.3682699999999999e-07
-0.335775;1.96764e-07;6.0921604e-08;-1.35843e-07
-0.3347;1.96217e-07;6.081222800000001e-08;-1.35405e-07
-0.333626;1.95124e-07;6.059348e-08;-1.3453e-07
-0.332551;1.94686e-07;6.0702856e-08;-1.33983e-07
-0.33147699999999997;1.94249e-07;6.081222800000001e-08;-1.33436e-07
-0.330402;1.93374e-07;6.0702856e-08;-1.32671e-07
-0.329328;1.92499e-07;6.048410800000001e-08;-1.32015e-07
-0.32825299999999996;1.91952e-07;6.059348e-08;-1.31358e-07
-0.327179;1.91514e-07;6.048410800000001e-08;-1.3103e-07
-0.326104;1.90967e-07;6.059348e-08;-1.30374e-07
-0.32503;1.90311e-07;6.0374732e-08;-1.29936e-07
-0.32395599999999997;1.89764e-07;6.0374732e-08;-1.2939e-07
-0.322881;1.89108e-07;6.026536e-08;-1.2884299999999998e-07
-0.321807;1.8899899999999998e-07;6.0374732e-08;-1.28624e-07
-0.32073199999999996;1.88671e-07;6.0702856e-08;-1.27968e-07
-0.319658;1.87905e-07;6.059348e-08;-1.27311e-07
-0.318583;1.88014e-07;6.0702856e-08;-1.27311e-07
-0.317509;1.8757699999999999e-07;6.0921604e-08;-1.26655e-07
-0.316434;1.87358e-07;6.0921604e-08;-1.26436e-07
-0.31536;1.86811e-07;6.0921604e-08;-1.2589e-07
-0.314285;1.86702e-07;6.114035200000001e-08;-1.25561e-07
-0.31321099999999996;1.86264e-07;6.1030976e-08;-1.25233e-07
-0.31213599999999997;1.85717e-07;6.114035200000001e-08;-1.24577e-07
-0.311062;1.85936e-07;6.146848e-08;-1.24468e-07
-0.309987;1.8549899999999999e-07;6.1577852e-08;-1.23921e-07
-0.308913;1.85389e-07;6.17966e-08;-1.23593e-07
-0.307838;1.8517099999999998e-07;6.168722800000001e-08;-1.23483e-07
-0.306764;1.84952e-07;6.201534800000001e-08;-1.22936e-07
-0.305689;1.84952e-07;6.212472e-08;-1.22827e-07
-0.30461499999999997;1.85061e-07;6.2562224e-08;-1.22499e-07
-0.30354;1.84405e-07;6.267159600000001e-08;-1.21733e-07
-0.302466;1.84405e-07;6.2780972e-08;-1.21624e-07
-0.30139099999999996;1.84186e-07;6.299972e-08;-1.21186e-07
-0.300317;1.84296e-07;6.3109092e-08;-1.21186e-07
-0.299242;1.84186e-07;6.343722e-08;-1.20749e-07
-0.298168;1.84405e-07;6.387471600000001e-08;-1.2053e-07
-0.29709399999999997;1.84624e-07;6.420284000000001e-08;-1.20421e-07
-0.296019;1.84842e-07;6.474971600000001e-08;-1.20093e-07
-0.294945;1.84952e-07;6.507783600000001e-08;-1.19874e-07
-0.29386999999999996;1.8517099999999998e-07;6.540596000000001e-08;-1.19765e-07
-0.292796;1.8528e-07;6.5734088e-08;-1.19546e-07
-0.291721;1.85936e-07;6.6390328e-08;-1.19546e-07
-0.290647;1.86155e-07;6.693720400000001e-08;-1.19218e-07
-0.289572;1.86483e-07;6.7265328e-08;-1.19218e-07
-0.288498;1.87358e-07;6.7921568e-08;-1.1943599999999999e-07
-0.287423;1.88014e-07;6.8687192e-08;-1.19327e-07
-0.28634899999999996;1.8878e-07;6.9562192e-08;-1.19218e-07
-0.28527399999999997;1.89436e-07;7.0327816e-08;-1.19108e-07
-0.2842;1.90311e-07;7.1093432e-08;-1.19218e-07
-0.28312499999999996;1.91514e-07;7.207780800000001e-08;-1.1943599999999999e-07
-0.282051;1.92061e-07;7.295280000000001e-08;-1.19108e-07
-0.280976;1.93374e-07;7.415592000000001e-08;-1.19218e-07
-0.279902;1.9403e-07;7.4921544e-08;-1.19108e-07
-0.278827;1.95671e-07;7.6124664e-08;-1.19546e-07
-0.27775299999999997;1.9698299999999998e-07;7.721840800000001e-08;-1.19765e-07
-0.276678;1.98186e-07;7.842152800000001e-08;-1.19765e-07
-0.27560399999999996;1.99608e-07;7.962464800000001e-08;-1.19983e-07
-0.27452899999999997;2.0092e-07;8.0827768e-08;-1.20093e-07
-0.273455;2.02233e-07;8.2030888e-08;-1.20202e-07
-0.27238;2.04202e-07;8.3562128e-08;-1.2064e-07
-0.271306;2.05733e-07;8.465587200000001e-08;-1.21077e-07
-0.270231;2.07483e-07;8.618711200000001e-08;-1.21296e-07
-0.269157;2.09452e-07;8.771836e-08;-1.21733e-07
-0.26808299999999996;2.11639e-07;8.946835200000001e-08;-1.22171e-07
-0.26700799999999997;2.13717e-07;9.099960000000001e-08;-1.22718e-07
-0.265934;2.15686e-07;9.2421464e-08;-1.2326499999999999e-07
-0.264859;2.1787399999999998e-07;9.428083200000001e-08;-1.23593e-07
-0.263785;2.2027999999999998e-07;9.592144800000001e-08;-1.24358e-07
-0.26271;2.22577e-07;9.767144000000001e-08;-1.24905e-07
-0.261636;2.24983e-07;9.931205600000001e-08;-1.25671e-07
-0.260561;2.27827e-07;1.01062e-07;-1.26765e-07
-0.25948699999999997;2.30561e-07;1.02921e-07;-1.2764e-07
-0.258412;2.33186e-07;1.04671e-07;-1.28515e-07
-0.257338;2.3624799999999999e-07;1.06421e-07;-1.29827e-07
-0.25626299999999996;2.3953e-07;1.08499e-07;-1.3103e-07
-0.255189;2.42155e-07;1.1013999999999999e-07;-1.32015e-07
-0.254114;2.45873e-07;1.1221799999999999e-07;-1.33655e-07
-0.25304;2.49483e-07;1.14405e-07;-1.3507699999999999e-07
-0.251965;2.52764e-07;1.16265e-07;-1.36499e-07
-0.250891;2.56483e-07;1.18343e-07;-1.3814e-07
-0.24981599999999998;2.59983e-07;1.20202e-07;-1.3978e-07
-0.248742;2.63701e-07;1.22061e-07;-1.41639e-07
-0.247667;2.6753e-07;1.2403e-07;-1.43499e-07
-0.24659299999999998;2.7092e-07;1.25671e-07;-1.45249e-07
-0.245518;2.74967e-07;1.2753e-07;-1.47436e-07
-0.244444;2.79123e-07;1.2939e-07;-1.49733e-07
-0.243369;2.82951e-07;1.3092099999999998e-07;-1.5203e-07
-0.24229499999999998;2.8688899999999997e-07;1.3278e-07;-1.54108e-07
-0.24122;2.90936e-07;1.34311e-07;-1.56624e-07
-0.240146;2.9520099999999997e-07;1.36061e-07;-1.59139e-07
-0.23907199999999998;2.9902899999999997e-07;1.37374e-07;-1.61655e-07
-0.237997;3.03404e-07;1.39015e-07;-1.64389e-07
-0.236923;3.07451e-07;1.40327e-07;-1.67124e-07
-0.235848;3.11498e-07;1.4153e-07;-1.69967e-07
-0.23477399999999998;3.15436e-07;1.42624e-07;-1.72811e-07
-0.233699;3.19701e-07;1.43827e-07;-1.75874e-07
-0.232625;3.23967e-07;1.4481099999999999e-07;-1.79155e-07
-0.23154999999999998;3.2790399999999997e-07;1.45686e-07;-1.82217e-07
-0.230476;3.3173199999999997e-07;1.4656099999999998e-07;-1.8517099999999998e-07
-0.229401;3.35998e-07;1.47546e-07;-1.88452e-07
-0.228327;3.39607e-07;1.47874e-07;-1.91733e-07
-0.22725199999999998;3.43654e-07;1.4853e-07;-1.95124e-07
-0.226178;3.47154e-07;1.49077e-07;-1.98077e-07
-0.225103;3.50982e-07;1.49405e-07;-2.01577e-07
-0.22402899999999998;3.54482e-07;1.49733e-07;-2.04749e-07
-0.22295399999999999;3.58092e-07;1.49733e-07;-2.08358e-07
-0.22188;3.61701e-07;1.49843e-07;-2.11858e-07
-0.220805;3.65529e-07;1.50171e-07;-2.15358e-07
-0.21973099999999998;3.6881e-07;1.50171e-07;-2.18639e-07
-0.218656;3.71873e-07;1.49952e-07;-2.2192e-07
-0.217582;3.7515399999999997e-07;1.50061e-07;-2.25092e-07
-0.21650699999999998;3.78107e-07;1.49952e-07;-2.28155e-07
-0.21543299999999999;3.8106e-07;1.49624e-07;-2.31436e-07
-0.214358;3.83467e-07;1.49296e-07;-2.3416999999999999e-07
-0.213284;3.8630999999999997e-07;1.49077e-07;-2.37233e-07
-0.21220999999999998;3.8871699999999997e-07;1.48749e-07;-2.39967e-07
-0.211135;3.90685e-07;1.48202e-07;-2.42483e-07
-0.210061;3.92435e-07;1.47546e-07;-2.44889e-07
-0.20898599999999998;3.94513e-07;1.47108e-07;-2.47405e-07
-0.20791199999999999;3.95826e-07;1.46343e-07;-2.49483e-07
-0.206837;3.97357e-07;1.45686e-07;-2.5167e-07
-0.205763;3.9856e-07;1.44921e-07;-2.53639e-07
-0.20468799999999998;3.99435e-07;1.44046e-07;-2.55389e-07
-0.203614;4.0031e-07;1.4328e-07;-2.5703e-07
-0.202539;4.00638e-07;1.42296e-07;-2.5834199999999997e-07
-0.20146499999999998;4.01185e-07;1.4153e-07;-2.59655e-07
-0.20038999999999998;4.01185e-07;1.40436e-07;-2.60748e-07
-0.199316;4.01076e-07;1.39343e-07;-2.61733e-07
-0.198241;4.00638e-07;1.38358e-07;-2.6228e-07
-0.19716699999999998;4.0052899999999997e-07;1.37483e-07;-2.63045e-07
-0.196092;3.99654e-07;1.36171e-07;-2.63483e-07
-0.195018;3.98779e-07;1.3507699999999999e-07;-2.63701e-07
-0.193943;3.98123e-07;1.34093e-07;-2.6403e-07
-0.19286899999999998;3.9670099999999997e-07;1.3289e-07;-2.63811e-07
-0.191794;3.9571699999999997e-07;1.31905e-07;-2.63811e-07
-0.19072;3.9363799999999997e-07;1.30702e-07;-2.62936e-07
-0.18964499999999998;3.92435e-07;1.29608e-07;-2.62826e-07
-0.188571;3.90467e-07;1.28296e-07;-2.6216999999999997e-07
-0.187496;3.8871699999999997e-07;1.2709299999999999e-07;-2.61623e-07
-0.186422;3.8663799999999997e-07;1.2589e-07;-2.60748e-07
-0.18534699999999998;3.84779e-07;1.24905e-07;-2.59873e-07
-0.184273;3.8292e-07;1.2403e-07;-2.58889e-07
-0.183199;3.80513e-07;1.22936e-07;-2.57576e-07
-0.18212399999999998;3.77888e-07;1.21843e-07;-2.56045e-07
-0.18105;3.75701e-07;1.20968e-07;-2.54733e-07
-0.179975;3.73185e-07;1.19983e-07;-2.53201e-07
-0.178901;3.70013e-07;1.1889e-07;-2.51123e-07
-0.17782599999999998;3.6749799999999997e-07;1.17905e-07;-2.49592e-07
-0.176752;3.64654e-07;1.1714e-07;-2.47514e-07
-0.175677;3.61592e-07;1.16155e-07;-2.45436e-07
-0.17460299999999998;3.58529e-07;1.1517099999999999e-07;-2.43358e-07
-0.173528;3.55357e-07;1.1429599999999999e-07;-2.41061e-07
-0.172454;3.52514e-07;1.13421e-07;-2.39092e-07
-0.171379;3.4945099999999997e-07;1.12655e-07;-2.36795e-07
-0.17030499999999998;3.45842e-07;1.11562e-07;-2.3428e-07
-0.16923;3.42889e-07;1.1101499999999999e-07;-2.31873e-07
-0.168156;3.39717e-07;1.1013999999999999e-07;-2.29577e-07
-0.16708099999999998;3.36436e-07;1.0926499999999999e-07;-2.2717e-07
-0.166007;3.32936e-07;1.08499e-07;-2.2443599999999999e-07
-0.164932;3.29545e-07;1.07624e-07;-2.2192e-07
-0.163858;3.26373e-07;1.06968e-07;-2.19405e-07
-0.16278299999999998;3.22873e-07;1.06202e-07;-2.1667e-07
-0.161709;3.19701e-07;1.0543699999999999e-07;-2.14264e-07
-0.160634;3.1641999999999997e-07;1.0478e-07;-2.11639e-07
-0.15955999999999998;3.13029e-07;1.04015e-07;-2.09014e-07
-0.158485;3.10076e-07;1.03468e-07;-2.06608e-07
-0.157411;3.06795e-07;1.02812e-07;-2.03983e-07
-0.156336;3.03842e-07;1.02155e-07;-2.01686e-07
-0.15526199999999998;3.00561e-07;1.0160799999999999e-07;-1.98952e-07
-0.154188;2.97717e-07;1.00952e-07;-1.96764e-07
-0.153113;2.9487299999999997e-07;1.00515e-07;-1.94358e-07
-0.15203899999999998;2.92139e-07;1.00077e-07;-1.92061e-07
-0.150964;2.89295e-07;9.953080800000001e-08;-1.89764e-07
-0.14989;2.8688899999999997e-07;9.920268800000001e-08;-1.87686e-07
-0.148815;2.84373e-07;9.887456800000001e-08;-1.8549899999999999e-07
-0.14774099999999998;2.81748e-07;9.8437064e-08;-1.83311e-07
-0.146666;2.7956099999999997e-07;9.8218312e-08;-1.8134199999999998e-07
-0.145592;2.77264e-07;9.799956800000001e-08;-1.79264e-07
-0.144517;2.74967e-07;9.7780816e-08;-1.77186e-07
-0.143443;2.7278e-07;9.745268800000001e-08;-1.75327e-07
-0.142368;2.70811e-07;9.745268800000001e-08;-1.73358e-07
-0.141294;2.68842e-07;9.734332000000001e-08;-1.71499e-07
-0.14021899999999998;2.66764e-07;9.701519200000001e-08;-1.69749e-07
-0.139145;2.64905e-07;9.6905824e-08;-1.67999e-07
-0.13807;2.63045e-07;9.668707200000001e-08;-1.6635799999999999e-07
