sep=;
Applied potential [V];WE current [A];WE current [A];WE current [A]
-0.50017;1.0289953e-05;-8.679961e-06;-1.8969914e-05
-0.499096;8.525961e-06;-7.069968e-06;-1.5595929e-05
-0.498021;7.433966e-06;-6.075972e-06;-1.3509939e-05
-0.49694699999999997;6.71997e-06;-5.4179749999999996e-06;-1.2137945e-05
-0.495872;6.229972e-06;-4.913978e-06;-1.114395e-05
-0.49479799999999996;5.8379739999999995e-06;-4.5359789999999995e-06;-1.0373952999999999e-05
-0.493724;5.543975e-06;-4.227981e-06;-9.771956e-06
-0.492649;5.305976e-06;-3.961982e-06;-9.267958e-06
-0.491575;5.1099759999999995e-06;-3.7379829999999998e-06;-8.84796e-06
-0.4905;4.927978e-06;-3.555984e-06;-8.483962e-06
-0.48942599999999997;4.773979e-06;-3.387984e-06;-8.161963e-06
-0.488351;4.647979e-06;-3.233985e-06;-7.881964e-06
-0.48727699999999996;4.5219799999999995e-06;-3.1079859999999998e-06;-7.629964999999999e-06
-0.48620199999999997;4.43798e-06;-2.981986e-06;-7.419966e-06
-0.485128;4.339981e-06;-2.869987e-06;-7.2099679999999995e-06
-0.48405299999999996;4.255981e-06;-2.7719869999999997e-06;-7.027968e-06
-0.482979;4.164981e-06;-2.680988e-06;-6.8459689999999995e-06
-0.481904;4.094981e-06;-2.596988e-06;-6.691969e-06
-0.48083;4.0249819999999995e-06;-2.519988e-06;-6.54497e-06
-0.479755;3.9689819999999995e-06;-2.442989e-06;-6.411971e-06
-0.47868099999999997;3.9129819999999996e-06;-2.372989e-06;-6.285972e-06
-0.477606;3.856982e-06;-2.309989e-06;-6.166972e-06
-0.47653199999999996;3.807983e-06;-2.246989e-06;-6.054973e-06
-0.47545699999999996;3.758983e-06;-2.19099e-06;-5.949973e-06
-0.474383;3.716983e-06;-2.13499e-06;-5.8519729999999995e-06
-0.47330799999999995;3.667983e-06;-2.08599e-06;-5.753974e-06
-0.472234;3.625983e-06;-2.03699e-06;-5.6629739999999995e-06
-0.471159;3.583983e-06;-1.994991e-06;-5.578975e-06
-0.470085;3.548984e-06;-1.945991e-06;-5.494975e-06
-0.46901;3.513984e-06;-1.9039909999999999e-06;-5.4179749999999996e-06
-0.46793599999999996;3.478984e-06;-1.8619909999999999e-06;-5.3409759999999995e-06
-0.466862;3.443984e-06;-1.826991e-06;-5.270976e-06
-0.465787;3.415984e-06;-1.784992e-06;-5.200976e-06
-0.464713;3.387984e-06;-1.749992e-06;-5.137977e-06
-0.463638;3.359984e-06;-1.7149919999999999e-06;-5.074977e-06
-0.462564;3.3249849999999997e-06;-1.6869919999999999e-06;-5.011977e-06
-0.461489;3.303985e-06;-1.651992e-06;-4.955978e-06
-0.46041499999999996;3.275985e-06;-1.623992e-06;-4.8999779999999995e-06
-0.45933999999999997;3.247985e-06;-1.595992e-06;-4.8439779999999995e-06
-0.458266;3.226985e-06;-1.5679929999999999e-06;-4.794978e-06
-0.45719099999999996;3.198985e-06;-1.5399929999999999e-06;-4.738979e-06
-0.456117;3.177985e-06;-1.511993e-06;-4.689979e-06
-0.455042;3.156985e-06;-1.483993e-06;-4.640979e-06
-0.453968;3.128986e-06;-1.462993e-06;-4.591979e-06
-0.452893;3.118486e-06;-1.434993e-06;-4.553479e-06
-0.45181899999999997;3.097486e-06;-1.410493e-06;-4.50798e-06
-0.450744;3.072986e-06;-1.389493e-06;-4.4624799999999995e-06
-0.44966999999999996;3.055486e-06;-1.368493e-06;-4.42398e-06
-0.44859499999999997;3.037986e-06;-1.343994e-06;-4.38198e-06
-0.447521;3.016986e-06;-1.322994e-06;-4.33998e-06
-0.44644599999999995;2.999486e-06;-1.301994e-06;-4.30148e-06
-0.445372;2.978486e-06;-1.284494e-06;-4.26298e-06
-0.444297;2.960986e-06;-1.2634939999999999e-06;-4.224481e-06
-0.443223;2.939986e-06;-1.245994e-06;-4.185981e-06
-0.442148;2.925986e-06;-1.224994e-06;-4.150981e-06
-0.44107399999999997;2.904987e-06;-1.207494e-06;-4.112481e-06
-0.439999;2.8874869999999997e-06;-1.1899939999999999e-06;-4.077481e-06
-0.43892499999999995;2.869987e-06;-1.172494e-06;-4.042482e-06
-0.437851;2.855987e-06;-1.154994e-06;-4.010982e-06
-0.436776;2.838487e-06;-1.137494e-06;-3.975982e-06
-0.435702;2.817487e-06;-1.123494e-06;-3.940982e-06
-0.434627;2.799987e-06;-1.109495e-06;-3.9094819999999995e-06
-0.43355299999999997;2.782487e-06;-1.095495e-06;-3.877982e-06
-0.432478;2.7719869999999997e-06;-1.077995e-06;-3.849982e-06
-0.43140399999999995;2.754487e-06;-1.063995e-06;-3.818483e-06
-0.43032899999999996;2.736988e-06;-1.049995e-06;-3.786983e-06
-0.429255;2.722987e-06;-1.035995e-06;-3.758983e-06
-0.42818;2.708987e-06;-1.021995e-06;-3.730983e-06
-0.427106;2.691487e-06;-1.011495e-06;-3.702983e-06
-0.426031;2.677488e-06;-9.97495e-07;-3.674983e-06
-0.424957;2.663488e-06;-9.83495e-07;-3.6469829999999997e-06
-0.423882;2.649488e-06;-9.69495e-07;-3.6189829999999997e-06
-0.42280799999999996;2.631988e-06;-9.58995e-07;-3.5909829999999998e-06
-0.42173299999999997;2.617988e-06;-9.48495e-07;-3.566484e-06
-0.420659;2.603988e-06;-9.34495e-07;-3.538484e-06
-0.41958399999999996;2.589988e-06;-9.239949999999999e-07;-3.513984e-06
-0.41851;2.575988e-06;-9.099949999999999e-07;-3.4859839999999997e-06
-0.417435;2.561988e-06;-8.99495e-07;-3.461484e-06
-0.416361;2.544488e-06;-8.88996e-07;-3.433484e-06
-0.415286;2.533988e-06;-8.78496e-07;-3.412484e-06
-0.41421199999999997;2.519988e-06;-8.644959999999999e-07;-3.3844849999999997e-06
-0.413137;2.502489e-06;-8.574959999999999e-07;-3.359985e-06
-0.41206299999999996;2.488488e-06;-8.46996e-07;-3.335485e-06
-0.410989;2.474489e-06;-8.36496e-07;-3.310985e-06
-0.409914;2.460489e-06;-8.25996e-07;-3.286485e-06
-0.40884;2.446489e-06;-8.15496e-07;-3.261985e-06
-0.407765;2.435989e-06;-8.04996e-07;-3.2409849999999998e-06
-0.40669099999999997;2.418489e-06;-7.97996e-07;-3.216485e-06
-0.405616;2.404489e-06;-7.87496e-07;-3.191985e-06
-0.40454199999999996;2.3939889999999998e-06;-7.76996e-07;-3.170985e-06
-0.40346699999999996;2.379989e-06;-7.66496e-07;-3.146485e-06
-0.402393;2.3659889999999998e-06;-7.59496e-07;-3.1254849999999998e-06
-0.401318;2.348489e-06;-7.52496e-07;-3.100986e-06
-0.400244;2.337989e-06;-7.419959999999999e-07;-3.0799859999999998e-06
-0.399169;2.322239e-06;-7.31496e-07;-3.053736e-06
-0.398095;2.3064889999999998e-06;-7.24496e-07;-3.030986e-06
-0.39702;2.2907399999999998e-06;-7.17496e-07;-3.008236e-06
-0.39594599999999996;2.2784889999999998e-06;-7.08746e-07;-2.987236e-06
-0.39487099999999997;2.264489e-06;-7.01746e-07;-2.966236e-06
-0.393797;2.250489e-06;-6.92996e-07;-2.943486e-06
-0.39272199999999996;2.238239e-06;-6.85996e-07;-2.924236e-06
-0.391648;2.22774e-06;-6.77246e-07;-2.9049859999999998e-06
-0.390573;2.21199e-06;-6.70247e-07;-2.882237e-06
-0.389499;2.19974e-06;-6.63247e-07;-2.862987e-06
-0.388424;2.18574e-06;-6.54497e-07;-2.840237e-06
-0.38734999999999997;2.1734899999999998e-06;-6.47497e-07;-2.820987e-06
-0.386275;2.16299e-06;-6.387469999999999e-07;-2.8017369999999998e-06
-0.38520099999999996;2.14724e-06;-6.33497e-07;-2.780737e-06
-0.38412599999999997;2.13499e-06;-6.24747e-07;-2.759737e-06
-0.383052;2.12099e-06;-6.19497e-07;-2.740487e-06
-0.38197699999999996;2.11224e-06;-6.10747e-07;-2.722987e-06
-0.380903;2.09649e-06;-6.05497e-07;-2.701988e-06
-0.37982899999999997;2.08424e-06;-5.98497e-07;-2.682738e-06
-0.378754;2.07199e-06;-5.91497e-07;-2.663488e-06
-0.37767999999999996;2.0579899999999998e-06;-5.84497e-07;-2.6424879999999998e-06
-0.37660499999999997;2.04749e-06;-5.77497e-07;-2.624988e-06
-0.375531;2.033491e-06;-5.72247e-07;-2.605738e-06
-0.37445599999999996;2.021241e-06;-5.65247e-07;-2.586488e-06
-0.373382;2.007241e-06;-5.59997e-07;-2.567238e-06
-0.372307;1.996741e-06;-5.52997e-07;-2.549738e-06
-0.371233;1.9844909999999998e-06;-5.45997e-07;-2.530488e-06
-0.370158;1.972241e-06;-5.40747e-07;-2.512988e-06
-0.36908399999999997;1.959991e-06;-5.33747e-07;-2.493738e-06
-0.368009;1.947741e-06;-5.26747e-07;-2.474489e-06
-0.36693499999999996;1.933741e-06;-5.21497e-07;-2.455239e-06
-0.36585999999999996;1.923241e-06;-5.14497e-07;-2.437739e-06
-0.364786;1.909241e-06;-5.09247e-07;-2.418489e-06
-0.363711;1.896991e-06;-5.03997e-07;-2.400989e-06
-0.362637;1.886491e-06;-4.96997e-07;-2.383489e-06
-0.361562;1.872491e-06;-4.91747e-07;-2.3642389999999998e-06
-0.360488;1.8619909999999999e-06;-4.84747e-07;-2.346739e-06
-0.359413;1.849741e-06;-4.794969999999999e-07;-2.329239e-06
-0.35833899999999996;1.839241e-06;-4.72497e-07;-2.311739e-06
-0.35726399999999997;1.828741e-06;-4.67247e-07;-2.295989e-06
-0.35619;1.8182409999999999e-06;-4.61997e-07;-2.280239e-06
-0.35511499999999996;1.807741e-06;-4.54997e-07;-2.262739e-06
-0.354041;1.797241e-06;-4.49747e-07;-2.246989e-06
-0.352967;1.7867419999999999e-06;-4.44498e-07;-2.2312399999999997e-06
-0.351892;1.777992e-06;-4.3574799999999997e-07;-2.21374e-06
-0.35081799999999996;1.765742e-06;-4.30498e-07;-2.19624e-06
-0.34974299999999997;1.755242e-06;-4.23498e-07;-2.17874e-06
-0.348669;1.7447419999999999e-06;-4.18248e-07;-2.16299e-06
-0.34759399999999996;1.732492e-06;-4.14748e-07;-2.14724e-06
-0.34652;1.723742e-06;-4.05998e-07;-2.12974e-06
-0.345445;1.716742e-06;-3.98998e-07;-2.1157399999999998e-06
-0.344371;1.707992e-06;-3.91998e-07;-2.09999e-06
-0.343296;1.695742e-06;-3.86748e-07;-2.08249e-06
-0.34222199999999997;1.6869919999999999e-06;-3.8149799999999997e-07;-2.06849e-06
-0.341147;1.678242e-06;-3.7449799999999997e-07;-2.05274e-06
-0.34007299999999996;1.6712419999999999e-06;-3.65748e-07;-2.03699e-06
-0.33899799999999997;1.660742e-06;-3.60498e-07;-2.021241e-06
-0.337924;1.652867e-06;-3.5262299999999997e-07;-2.005491e-06
-0.336849;1.644117e-06;-3.46498e-07;-1.990616e-06
-0.335775;1.632742e-06;-3.4212299999999997e-07;-1.974866e-06
-0.3347;1.6274919999999999e-06;-3.32498e-07;-1.959991e-06
-0.333626;1.620492e-06;-3.24623e-07;-1.945116e-06
-0.332551;1.612617e-06;-3.17623e-07;-1.930241e-06
-0.33147699999999997;1.605617e-06;-3.10623e-07;-1.916241e-06
-0.330402;1.597742e-06;-3.02748e-07;-1.900491e-06
-0.329328;1.592492e-06;-2.9487299999999997e-07;-1.887366e-06
-0.32825299999999996;1.5846169999999999e-06;-2.8787299999999997e-07;-1.872491e-06
-0.327179;1.577617e-06;-2.79998e-07;-1.857616e-06
-0.326104;1.571493e-06;-2.71248e-07;-1.842741e-06
-0.32503;1.565368e-06;-2.63373e-07;-1.828741e-06
-0.32395599999999997;1.559243e-06;-2.54623e-07;-1.813866e-06
-0.322881;1.553992e-06;-2.46748e-07;-1.800741e-06
-0.321807;1.548743e-06;-2.37123e-07;-1.785867e-06
-0.32073199999999996;1.544368e-06;-2.26623e-07;-1.770992e-06
-0.319658;1.5399929999999999e-06;-2.1612399999999998e-07;-1.756117e-06
-0.318583;1.535618e-06;-2.08249e-07;-1.7438669999999999e-06
-0.317509;1.529493e-06;-2.00374e-07;-1.7298669999999999e-06
-0.316434;1.526868e-06;-1.8899899999999998e-07;-1.7158669999999999e-06
-0.31536;1.5251179999999999e-06;-1.76749e-07;-1.701867e-06
-0.314285;1.519868e-06;-1.67999e-07;-1.687867e-06
-0.31321099999999996;1.52118e-06;-1.54436e-07;-1.675617e-06
-0.31213599999999997;1.517243e-06;-1.4481099999999999e-07;-1.662055e-06
-0.311062;1.51418e-06;-1.33874e-07;-1.648055e-06
-0.309987;1.511993e-06;-1.23374e-07;-1.635367e-06
-0.308913;1.5102429999999999e-06;-1.12436e-07;-1.62268e-06
-0.307838;1.509805e-06;-9.9749552e-08;-1.609555e-06
-0.306764;1.507618e-06;-8.9687096e-08;-1.5973049999999999e-06
-0.305689;1.506305e-06;-7.787465600000001e-08;-1.5841799999999999e-06
-0.30461499999999997;1.506305e-06;-6.5187212e-08;-1.571493e-06
-0.30354;1.505649e-06;-5.2499768000000006e-08;-1.558149e-06
-0.302466;1.509587e-06;-3.6749836e-08;-1.546336e-06
-0.30139099999999996;1.50718e-06;-2.6468634000000003e-08;-1.5336489999999999e-06
-0.300317;1.513743e-06;-8.312463e-09;-1.522055e-06
-0.299242;1.5115549999999999e-06;2.4062390000000003e-09;-1.509149e-06
-0.298168;1.513305e-06;1.5968679000000002e-08;-1.497337e-06
-0.29709399999999997;1.51768e-06;3.171861e-08;-1.485962e-06
-0.296019;1.520305e-06;4.6374792e-08;-1.47393e-06
-0.294945;1.524462e-06;6.212472e-08;-1.462337e-06
-0.29386999999999996;1.529711e-06;7.80934e-08;-1.451618e-06
-0.292796;1.534305e-06;9.406208000000001e-08;-1.440243e-06
-0.291721;1.5395549999999999e-06;1.08718e-07;-1.4308369999999999e-06
-0.290647;1.548743e-06;1.2709299999999999e-07;-1.421649e-06
-0.289572;1.55268e-06;1.41749e-07;-1.410931e-06
-0.288498;1.564711e-06;1.62968e-07;-1.401743e-06
-0.287423;1.572586e-06;1.79811e-07;-1.392775e-06
-0.28634899999999996;1.583961e-06;1.99936e-07;-1.384025e-06
-0.28527399999999997;1.597086e-06;2.20499e-07;-1.376587e-06
-0.2842;1.608899e-06;2.39311e-07;-1.369587e-06
-0.28312499999999996;1.623773e-06;2.60967e-07;-1.362806e-06
-0.282051;1.638211e-06;2.82623e-07;-1.355587e-06
-0.280976;1.655055e-06;3.05154e-07;-1.3499e-06
-0.279902;1.673648e-06;3.30092e-07;-1.343556e-06
-0.278827;1.691367e-06;3.5306e-07;-1.338306e-06
-0.27775299999999997;1.713023e-06;3.78217e-07;-1.334806e-06
-0.276678;1.734023e-06;4.0337299999999997e-07;-1.33065e-06
-0.27560399999999996;1.756117e-06;4.28966e-07;-1.32715e-06
-0.27452899999999997;1.780617e-06;4.5631e-07;-1.324306e-06
-0.273455;1.807085e-06;4.84091e-07;-1.322994e-06
-0.27238;1.835523e-06;5.13841e-07;-1.3216809999999999e-06
-0.271306;1.866804e-06;5.449029999999999e-07;-1.3219e-06
-0.270231;1.900054e-06;5.77278e-07;-1.322775e-06
-0.269157;1.933085e-06;6.08778e-07;-1.324306e-06
-0.26808299999999996;1.968522e-06;6.41809e-07;-1.326712e-06
-0.26700799999999997;2.003959e-06;6.74403e-07;-1.329556e-06
-0.265934;2.0444279999999998e-06;7.09184e-07;-1.3352439999999999e-06
-0.264859;2.0877399999999998e-06;7.476839999999999e-07;-1.340056e-06
-0.263785;2.127771e-06;7.82246e-07;-1.345525e-06
-0.26271;2.174802e-06;8.214019999999999e-07;-1.3534e-06
-0.261636;2.220958e-06;8.59902e-07;-1.361056e-06
-0.260561;2.269302e-06;8.99933e-07;-1.369368e-06
-0.25948699999999997;2.321583e-06;9.42152e-07;-1.3794309999999999e-06
-0.258412;2.3736449999999998e-06;9.8262e-07;-1.391025e-06
-0.257338;2.427457e-06;1.02462e-06;-1.402837e-06
-0.25626299999999996;2.485207e-06;1.068589e-06;-1.416618e-06
-0.255189;2.545144e-06;1.113432e-06;-1.431712e-06
-0.254114;2.606175e-06;1.158713e-06;-1.447462e-06
-0.25304;2.6687379999999997e-06;1.205525e-06;-1.463212e-06
-0.251965;2.731081e-06;1.251025e-06;-1.480055e-06
-0.250891;2.794737e-06;1.295431e-06;-1.499305e-06
-0.24981599999999998;2.861018e-06;1.343775e-06;-1.517243e-06
-0.248742;2.930143e-06;1.392337e-06;-1.537805e-06
-0.247667;2.996642e-06;1.4384929999999999e-06;-1.558149e-06
-0.24659299999999998;3.0637979999999997e-06;1.485524e-06;-1.578274e-06
-0.245518;3.131829e-06;1.531024e-06;-1.600805e-06
-0.244444;3.2022659999999997e-06;1.5765239999999999e-06;-1.625742e-06
-0.243369;3.271391e-06;1.622461e-06;-1.64893e-06
-0.24229499999999998;3.339641e-06;1.665992e-06;-1.673648e-06
-0.24122;3.404828e-06;1.709304e-06;-1.695523e-06
-0.240146;3.467172e-06;1.749992e-06;-1.717179e-06
-0.23907199999999998;3.5323589999999998e-06;1.789585e-06;-1.742773e-06
-0.237997;3.597327e-06;1.829398e-06;-1.767929e-06
-0.236923;3.6614209999999997e-06;1.8674599999999999e-06;-1.79396e-06
-0.235848;3.7200449999999997e-06;1.900272e-06;-1.819773e-06
-0.23477399999999998;3.776483e-06;1.932647e-06;-1.843835e-06
-0.233699;3.81717e-06;1.949053e-06;-1.868116e-06
-0.232625;3.867482e-06;1.977928e-06;-1.8895539999999999e-06
-0.23154999999999998;3.919107e-06;2.003303e-06;-1.915804e-06
-0.230476;3.965919e-06;2.0273659999999998e-06;-1.938553e-06
-0.229401;4.010544e-06;2.04924e-06;-1.961303e-06
-0.228327;4.052981e-06;2.06849e-06;-1.9844909999999998e-06
-0.22725199999999998;4.094543e-06;2.0873029999999998e-06;-2.00724e-06
-0.226178;4.1317309999999996e-06;2.1008649999999997e-06;-2.030865e-06
-0.225103;4.166293e-06;2.113115e-06;-2.053178e-06
-0.22402899999999998;4.201294e-06;2.126678e-06;-2.0746149999999998e-06
-0.22295399999999999;4.2306059999999995e-06;2.134552e-06;-2.096053e-06
-0.22188;4.26298e-06;2.144177e-06;-2.118803e-06
-0.220805;4.28923e-06;2.151177e-06;-2.138052e-06
-0.21973099999999998;4.3185429999999995e-06;2.1581779999999998e-06;-2.1603649999999998e-06
-0.218656;4.342605e-06;2.16474e-06;-2.177865e-06
-0.217582;4.365355e-06;2.167802e-06;-2.197552e-06
-0.21650699999999998;4.388105e-06;2.17174e-06;-2.216365e-06
-0.21543299999999999;4.407355e-06;2.173927e-06;-2.2334269999999998e-06
-0.214358;4.4217919999999995e-06;2.172177e-06;-2.249614e-06
-0.213284;4.4362299999999995e-06;2.16999e-06;-2.266239e-06
-0.21220999999999998;4.4515419999999995e-06;2.16824e-06;-2.283302e-06
-0.211135;4.46423e-06;2.165615e-06;-2.298614e-06
-0.210061;4.476479e-06;2.163427e-06;-2.313052e-06
-0.20898599999999998;4.484355e-06;2.159927e-06;-2.324427e-06
-0.20791199999999999;4.493542e-06;2.153802e-06;-2.339739e-06
-0.206837;4.499229e-06;2.14724e-06;-2.351989e-06
-0.205763;4.505354e-06;2.140677e-06;-2.3646759999999998e-06
-0.20468799999999998;4.508417e-06;2.1323649999999998e-06;-2.376051e-06
-0.203614;4.511917e-06;2.124928e-06;-2.386989e-06
-0.202539;4.513667e-06;2.1157399999999998e-06;-2.397926e-06
-0.20146499999999998;4.514105e-06;2.10699e-06;-2.4071139999999998e-06
-0.20038999999999998;4.514105e-06;2.097365e-06;-2.416739e-06
-0.199316;4.511917e-06;2.0873029999999998e-06;-2.424614e-06
-0.198241;4.50973e-06;2.078553e-06;-2.431176e-06
-0.19716699999999998;4.50798e-06;2.067615e-06;-2.440364e-06
-0.196092;4.503605e-06;2.056678e-06;-2.446926e-06
-0.195018;4.497042e-06;2.04399e-06;-2.453051e-06
-0.193943;4.491792e-06;2.032178e-06;-2.459614e-06
-0.19286899999999998;4.483042e-06;2.019928e-06;-2.463114e-06
-0.191794;4.476917e-06;2.00724e-06;-2.469676e-06
-0.19072;4.4681669999999996e-06;1.994116e-06;-2.474051e-06
-0.18964499999999998;4.457667e-06;1.980553e-06;-2.477113e-06
-0.188571;4.449792e-06;1.967428e-06;-2.4823629999999998e-06
-0.187496;4.437105e-06;1.952553e-06;-2.484551e-06
-0.186422;4.428355e-06;1.938991e-06;-2.489363e-06
-0.18534699999999998;4.417855e-06;1.925428e-06;-2.492426e-06
-0.184273;4.405605e-06;1.9118659999999998e-06;-2.493738e-06
-0.183199;4.394668e-06;1.897429e-06;-2.4972379999999998e-06
-0.18212399999999998;4.378918e-06;1.882554e-06;-2.4963639999999998e-06
-0.18105;4.3636049999999995e-06;1.868991e-06;-2.494613e-06
-0.179975;4.34873e-06;1.854116e-06;-2.494613e-06
-0.178901;4.332105e-06;1.839679e-06;-2.492426e-06
-0.17782599999999998;4.31198e-06;1.823054e-06;-2.488926e-06
-0.176752;4.293605e-06;1.807304e-06;-2.486301e-06
-0.175677;4.272168e-06;1.789804e-06;-2.4823629999999998e-06
-0.17460299999999998;4.248981e-06;1.7731789999999999e-06;-2.475801e-06
-0.173528;4.227981e-06;1.756554e-06;-2.471426e-06
-0.172454;4.2030429999999995e-06;1.739492e-06;-2.463551e-06
-0.171379;4.176356e-06;1.721554e-06;-2.454801e-06
-0.17030499999999998;4.150106e-06;1.704054e-06;-2.446051e-06
-0.16923;4.121231e-06;1.6865539999999999e-06;-2.434676e-06
-0.168156;4.090606e-06;1.667742e-06;-2.422864e-06
-0.16708099999999998;4.059982e-06;1.649367e-06;-2.410614e-06
-0.166007;4.028919e-06;1.630992e-06;-2.397926e-06
-0.164932;3.992607e-06;1.610867e-06;-2.381739e-06
-0.163858;3.958482e-06;1.591617e-06;-2.366864e-06
-0.16278299999999998;3.921732e-06;1.57193e-06;-2.349802e-06
-0.161709;3.882357e-06;1.551805e-06;-2.330552e-06
-0.160634;3.844732e-06;1.532118e-06;-2.312614e-06
-0.15955999999999998;3.801857e-06;1.5111179999999999e-06;-2.290739e-06
-0.158485;3.76117e-06;1.490555e-06;-2.270614e-06
-0.157411;3.713483e-06;1.469118e-06;-2.244365e-06
-0.156336;3.669733e-06;1.447681e-06;-2.222052e-06
-0.15526199999999998;3.625108e-06;1.426681e-06;-2.198427e-06
-0.154188;3.578733e-06;1.404368e-06;-2.174365e-06
-0.153113;3.5323589999999998e-06;1.382056e-06;-2.150302e-06
-0.15203899999999998;3.4855469999999997e-06;1.359743e-06;-2.125803e-06
-0.150964;3.436547e-06;1.337869e-06;-2.098678e-06
-0.14989;3.386234e-06;1.316431e-06;-2.069803e-06
-0.148815;3.335922e-06;1.294556e-06;-2.041365e-06
-0.14774099999999998;3.283422e-06;1.272681e-06;-2.01074e-06
-0.146666;3.230485e-06;1.250369e-06;-1.980116e-06
-0.145592;3.177985e-06;1.228494e-06;-1.949491e-06
-0.144517;3.1246109999999998e-06;1.206619e-06;-1.917991e-06
-0.143443;3.071673e-06;1.184744e-06;-1.886929e-06
-0.142368;3.016111e-06;1.162869e-06;-1.853241e-06
-0.141294;2.9622989999999998e-06;1.140994e-06;-1.821304e-06
-0.14021899999999998;2.908049e-06;1.119557e-06;-1.7884919999999999e-06
-0.139145;2.851612e-06;1.097682e-06;-1.753929e-06
-0.13807;2.795612e-06;1.076245e-06;-1.719367e-06
